gr3_chaet_cuvette2,,
Wavelength (nm),Abs,
850,-0.005737762433,
849,-0.002050652169,
848,-0.008074766956,
847,-0.003871695139,
846,-0.005258506164,
845,-0.01111885998,
844,-0.007750221994,
843,-0.004018423613,
842,-0.007738779299,
841,8.305013034E-5,
840,-0.00521840388,
839,-0.005396893248,
838,-0.005104623269,
837,-0.006020364817,
836,-0.005439637695,
835,-0.002468343824,
834,-6.988648965E-5,
833,-0.004163974896,
832,-0.007426401135,
831,-0.004217300564,
830,-0.002048488008,
829,-0.004920382984,
828,-0.005933606531,
827,-0.004326392896,
826,-0.005884730257,
825,-0.002467211336,
824,0.000902701111,
823,-0.004484958481,
822,-0.00372168282,
821,-0.003037631745,
820,-0.005244235508,
819,-0.003439275082,
818,-0.004514574539,
817,-0.004377341364,
816,-0.002280045999,
815,-0.004622208886,
814,-0.00621802127,
813,-0.005549905822,
812,-0.003669630969,
811,-0.004710407462,
810,-0.005648954771,
809,-0.004032683559,
808,-0.003187212395,
807,-0.004793109372,
806,-0.005363246426,
805,-0.005396432709,
804,-0.002998712007,
803,-0.005077401642,
802,-0.006439052522,
801,-0.003889192129,
800,-0.004924273584,
799,-0.004303377122,
798,-0.003831258975,
797,-0.004829923157,
796,-0.005521229468,
795,-0.005976145156,
794,-0.007392300759,
793,-0.006373244803,
792,-0.00429794332,
791,-0.005181520712,
790,-0.007642545737,
789,-0.004638702609,
788,-0.006084439345,
787,-0.005546787754,
786,-0.005860264879,
785,-0.006670321338,
784,-0.00813005399,
783,-0.006425790023,
782,-0.004089974798,
781,-0.005895456299,
780,-0.005761264358,
779,-0.005989830475,
778,-0.00531906262,
777,-0.006960775703,
776,-0.005325199571,
775,-0.007290390786,
774,-0.005500424188,
773,-0.006227870937,
772,-0.006373244803,
771,-0.007873581722,
770,-0.005833856761,
769,-0.007498359773,
768,-0.006394824944,
767,-0.006308549549,
766,-0.005867364351,
765,-0.007240292616,
764,-0.007483399007,
763,-0.007023489103,
762,-0.006816464476,
761,-0.006709219422,
760,-0.006465169135,
759,-0.006070553325,
758,-0.007110131439,
757,-0.006774059031,
756,-0.007549089845,
755,-0.006569516845,
754,-0.005822056904,
753,-0.005955514964,
752,-0.007037242875,
751,-0.006505615544,
750,-0.007505687419,
749,-0.00641487306,
748,-0.007674287073,
747,-0.007660146337,
746,-0.00863817893,
745,-0.00694696838,
744,-0.007147055119,
743,-0.007486859336,
742,-0.00749479793,
741,-0.006854279432,
740,-0.007222318556,
739,-0.007413779385,
738,-0.006674654782,
737,-0.007572341245,
736,-0.007478513755,
735,-0.007417087443,
734,-0.007816380821,
733,-0.007531078067,
732,-0.006971423514,
731,-0.007543849293,
730,-0.008575342596,
729,-0.006685972679,
728,-0.006647837348,
727,-0.007210352924,
726,-0.00793906115,
725,-0.008606914431,
724,-0.007947702892,
723,-0.007502837572,
722,-0.00810937304,
721,-0.007278274279,
720,-0.007406297605,
719,-0.00744273793,
718,-0.007883342914,
717,-0.007163147908,
716,-0.007512251381,
715,-0.006764680613,
714,-0.006341663655,
713,-0.007076617796,
712,-0.006236903835,
711,-0.006225982681,
710,-0.007048856933,
709,-0.006307069678,
708,-0.005724376068,
707,-0.005898979958,
706,-0.006563907024,
705,-0.004922993947,
704,-0.003054545727,
703,-0.002861873247,
702,-0.001462215558,
701,-0.0009346160805,
700,0.001429001801,
699,0.002766971476,
698,0.004215028137,
697,0.006046955939,
696,0.008978462778,
695,0.01258142572,
694,0.01620786451,
693,0.02000183985,
692,0.02427021042,
691,0.0292370338,
690,0.03546807542,
689,0.04091919959,
688,0.0456081368,
687,0.0535098128,
686,0.05919608474,
685,0.06551523507,
684,0.07096190751,
683,0.07675564289,
682,0.08228099346,
681,0.08801943064,
680,0.09267875552,
679,0.09544362128,
678,0.1004816145,
677,0.1020921767,
676,0.106122911,
675,0.1065455452,
674,0.1087337583,
673,0.1084403843,
672,0.1090024039,
671,0.1068023145,
670,0.1023620814,
669,0.100553453,
668,0.09638652205,
667,0.09145978838,
666,0.08699906617,
665,0.0815179795,
664,0.07553968579,
663,0.069623366,
662,0.06445646286,
661,0.05912572145,
660,0.05434275419,
659,0.0487918742,
658,0.04526522756,
657,0.04135357961,
656,0.03848676383,
655,0.03593566641,
654,0.03363922238,
653,0.03104718029,
652,0.02982750721,
651,0.02869406715,
650,0.02906822227,
649,0.02818152681,
648,0.0281975735,
647,0.02832595445,
646,0.02909861319,
645,0.02977169864,
644,0.031349767,
643,0.03179475665,
642,0.03355976567,
641,0.03397769108,
640,0.03493036702,
639,0.03514177725,
638,0.03465431929,
637,0.03514110297,
636,0.03466068208,
635,0.03474578261,
634,0.03366118297,
633,0.03235224262,
632,0.03253913298,
631,0.03166623786,
630,0.03134453669,
629,0.03106155433,
628,0.03061595559,
627,0.02964901552,
626,0.02993501537,
625,0.02756095678,
624,0.02830020338,
623,0.02865181491,
622,0.02821599878,
621,0.02749906853,
620,0.0280116871,
619,0.02691629343,
618,0.02715913579,
617,0.02580519393,
616,0.02577028051,
615,0.0245808512,
614,0.0233220607,
613,0.02317338996,
612,0.02160701528,
611,0.02066337876,
610,0.020221835,
609,0.01913047023,
608,0.01909668371,
607,0.01914734952,
606,0.01822974347,
605,0.0180541724,
604,0.01713679545,
603,0.01684467308,
602,0.0166545175,
601,0.01721435599,
600,0.01667525619,
599,0.01745096967,
598,0.01828044467,
597,0.0183039885,
596,0.0195711758,
595,0.02050692961,
594,0.02022397704,
593,0.02028196305,
592,0.02143793181,
591,0.02179731056,
590,0.0228012763,
589,0.0224821195,
588,0.02201631106,
587,0.02298314497,
586,0.02211653627,
585,0.02237159014,
584,0.0223543644,
583,0.02168556675,
582,0.02184423804,
581,0.02160464786,
580,0.02162478119,
579,0.02132483944,
578,0.02169549838,
577,0.02045737952,
576,0.02074941806,
575,0.02059149928,
574,0.0207577534,
573,0.02117220126,
572,0.02178789303,
571,0.02151218429,
570,0.02156250738,
569,0.02276564762,
568,0.02269742824,
567,0.02231553011,
566,0.02350092307,
565,0.0242851302,
564,0.02482721396,
563,0.02507196181,
562,0.02667634003,
561,0.02690257877,
560,0.02888730168,
559,0.02973671444,
558,0.03074991517,
557,0.03245384991,
556,0.0337401256,
555,0.03539864346,
554,0.03674526513,
553,0.0378718935,
552,0.03898457438,
551,0.04043342918,
550,0.04210928455,
549,0.0429796651,
548,0.04450891912,
547,0.04466510937,
546,0.04601951689,
545,0.04735293239,
544,0.04919124022,
543,0.05075364932,
542,0.05157245323,
541,0.05250908807,
540,0.05450117216,
539,0.05439838022,
538,0.05547388643,
537,0.05723690987,
536,0.0577797927,
535,0.05958363786,
534,0.06114503369,
533,0.06162632629,
532,0.0621037893,
531,0.06295803189,
530,0.06514130533,
529,0.06574171782,
528,0.06621784717,
527,0.0666500777,
526,0.06825110316,
525,0.06821923703,
524,0.06906083971,
523,0.07111894339,
522,0.07268615067,
521,0.07307355851,
520,0.07344745845,
519,0.07424969226,
518,0.07597485185,
517,0.0772068426,
516,0.07742337883,
515,0.07797300071,
514,0.0803097561,
513,0.08177889884,
512,0.08243714273,
511,0.08310816437,
510,0.08493047953,
509,0.08681212366,
508,0.08798436821,
507,0.08863414824,
506,0.09006392211,
505,0.09165584296,
504,0.09264283627,
503,0.09501875937,
502,0.09509982169,
501,0.09607759863,
500,0.098161228,
499,0.09889292717,
498,0.09956152737,
497,0.1007180437,
496,0.1014527604,
495,0.1039019749,
494,0.1035980135,
493,0.1048244908,
492,0.1054212749,
491,0.1058526337,
490,0.1057824492,
489,0.1066161841,
488,0.1065577194,
487,0.1070730165,
486,0.1081872657,
485,0.1089680046,
484,0.1098637804,
483,0.1105237901,
482,0.1107604727,
481,0.1115035564,
480,0.1139432117,
479,0.1145475134,
478,0.1175228208,
477,0.1184910834,
476,0.1192980781,
475,0.1211147979,
474,0.1238564625,
473,0.1252416074,
472,0.12657848,
471,0.1289840639,
470,0.1306495368,
469,0.1315111369,
468,0.1336782873,
467,0.1357367486,
466,0.1357664019,
465,0.1377457976,
464,0.1393477768,
463,0.1413974464,
462,0.1414280236,
461,0.142878443,
460,0.1436377764,
459,0.1429919302,
458,0.1452316344,
457,0.1444727927,
456,0.1446784437,
455,0.1461427361,
454,0.1467764527,
453,0.147984311,
452,0.1468638182,
451,0.1475905329,
450,0.1492097527,
449,0.1503468603,
448,0.1509689987,
447,0.1529294997,
446,0.1540104151,
445,0.1551425457,
444,0.1560614258,
443,0.1571574211,
442,0.1575359255,
441,0.1581519544,
440,0.1594227254,
439,0.1603011042,
438,0.1589465588,
437,0.1587619483,
436,0.1594512463,
435,0.1586338878,
434,0.1576182693,
433,0.156896323,
432,0.1560330242,
431,0.1553076059,
430,0.1545554996,
429,0.1524437368,
428,0.1517577618,
427,0.1507129967,
426,0.1498338133,
425,0.1496258974,
424,0.1479875445,
423,0.1460893899,
422,0.1466233134,
421,0.1462352425,
420,0.1456152052,
419,0.1455984414,
418,0.1462718844,
417,0.1460177898,
416,0.1464147866,
415,0.1465671957,
414,0.1447763294,
413,0.1432249993,
412,0.1426212192,
411,0.1423687786,
410,0.1402956694,
409,0.139529109,
408,0.1386857629,
407,0.1385920495,
406,0.1369374543,
405,0.135722667,
404,0.1342953891,
403,0.133481577,
402,0.1333805174,
401,0.1325708032,
400,0.1321996748,
399,0.1313267946,
398,0.130073756,
397,0.1313246191,
396,0.1291026026,
395,0.130163908,
394,0.1305719018,
393,0.1287063211,
392,0.1271083802,
391,0.1281722635,
390,0.1273876131,
389,0.1281926483,
388,0.1266568452,
387,0.1276364475,
386,0.1273057014,
385,0.1309938282,
384,0.1294015795,
383,0.128133297,
382,0.1286844313,
381,0.1298077106,
380,0.1306150109,
379,0.1286614835,
378,0.1267239004,
377,0.1257938445,
376,0.1245882064,
375,0.1263951808,
374,0.1277722865,
373,0.1242895201,
372,0.1240884364,
371,0.1243572086,
370,0.1244917959,
369,0.1271596998,
368,0.1275280267,
367,0.1307954192,
366,0.1244364604,
365,0.1258967072,
364,0.1199282333,
363,0.1295800954,
362,0.1268902272,
361,0.1257280409,
360,0.126823321,
359,0.1234854162,
358,0.130641669,
357,0.1304989308,
356,0.1333468854,
355,0.1239601076,
354,0.1344470978,
353,0.1467367858,
352,0.1403533816,
351,0.1196061745,
350,0.1114693582,
349,0.1386103928,
348,0.1461467296,
347,0.1350686252,
346,0.1421569288,
345,0.1548533738,
344,0.1522336155,
343,0.1509236395,
342,0.1640459299,
341,0.1652420163,
340,0.1531849056,
339,0.1547983289,
338,0.1565000713,
337,0.1637254357,
336,0.1720524579,
335,0.1681519449,
334,0.1625708491,
333,0.166010499,
332,0.171803087,
331,0.1773419827,
330,0.1747745723,
329,0.1691910475,
328,0.1692857891,
327,0.1841316372,
326,0.1673866808,
325,0.1792818308,
324,0.1857941598,
323,0.1829889417,
322,0.1971104443,
321,0.1934360415,
320,0.1888918281,
319,0.1928498298,
318,0.197155565,
317,0.1959663481,
316,0.1961087137,
315,0.202735737,
314,0.2033983916,
313,0.2019046247,
312,0.1913769394,
311,0.2047376186,
310,0.2077462375,
309,0.2091868371,
308,0.210871309,
307,0.2128341794,
306,0.2133832425,
305,0.2151687294,
304,0.2129597068,
303,0.2098471522,
302,0.2106417269,
301,0.2042071819,
300,0.1958000064,
299,0.1914406419,
298,0.1886696666,
297,0.1749156266,
296,0.1636638492,
295,0.1520135105,
294,0.1417631358,
293,0.1441887915,
292,0.1304411888,
291,0.1219196618,
290,0.1150445789,
289,0.110024862,
288,0.1080754325,
287,0.1002357528,
286,0.1018135622,
285,0.09643758833,
284,0.1008585915,
283,0.09377153963,
282,0.09135854244,
281,0.09103236347,
280,0.09248839319,
279,0.09233298153,
278,0.09854190797,
277,0.09579730034,
276,0.08831108361,
275,0.08766299486,
274,0.08769178391,
273,0.08450876176,
272,0.09096185118,
271,0.09449274838,
270,0.08753769845,
269,0.08682394773,
268,0.08047223091,
267,0.09398750216,
266,0.08410668373,
265,0.09005621821,
264,0.08823809773,
263,0.09133480489,
262,0.09009514004,
261,0.08860954642,
260,0.09327521175,
259,0.09419137985,
258,0.09717681259,
257,0.09086225182,
256,0.08987406641,
255,0.09419640154,
254,0.0963947624,
253,0.1022964567,
252,0.09436428547,
251,0.1011258066,
250,0.1014787853,

