gr3_chaet_cuvette,,
Wavelength (nm),Abs,
850,-0.03149622306,
849,-0.02925004251,
848,-0.0315730162,
847,-0.02773850039,
846,-0.02995716967,
845,-0.03278526291,
844,-0.03391269594,
843,-0.02896511555,
842,-0.03127231449,
841,-0.02685827389,
840,-0.03086316399,
839,-0.03060848452,
838,-0.03186542541,
837,-0.03646048531,
836,-0.03300570324,
835,-0.03310310096,
834,-0.02851005457,
833,-0.03096316196,
832,-0.03235975653,
831,-0.03134413809,
830,-0.02909266576,
829,-0.03193691,
828,-0.03278343752,
827,-0.03315476328,
826,-0.02996833064,
825,-0.02846079506,
824,-0.02762391232,
823,-0.0323606208,
822,-0.03229569271,
821,-0.0291332379,
820,-0.03099256754,
819,-0.03203627467,
818,-0.0321534574,
817,-0.0315034911,
816,-0.02986631542,
815,-0.03376787156,
814,-0.03402357548,
813,-0.03179619089,
812,-0.03017311171,
811,-0.03052293137,
810,-0.03079806082,
809,-0.03065017052,
808,-0.02783179097,
807,-0.03197827563,
806,-0.03353113681,
805,-0.02820222825,
804,-0.03099632822,
803,-0.03144267574,
802,-0.03094382957,
801,-0.03034327738,
800,-0.03191920742,
799,-0.03009389713,
798,-0.03096904233,
797,-0.03174797446,
796,-0.03282784298,
795,-0.03097521327,
794,-0.03168459237,
793,-0.03215119615,
792,-0.03012824059,
791,-0.03176452965,
790,-0.03421789035,
789,-0.03258910775,
788,-0.03197755292,
787,-0.0332291536,
786,-0.03232390434,
785,-0.03225474432,
784,-0.03367421776,
783,-0.03278358281,
782,-0.03148264438,
781,-0.03313663229,
780,-0.03227978572,
779,-0.03417841345,
778,-0.03176274896,
777,-0.03362333775,
776,-0.03168642148,
775,-0.03334016353,
774,-0.03235225752,
773,-0.03398192674,
772,-0.03144320473,
771,-0.03248040378,
770,-0.03272169456,
769,-0.03173435479,
768,-0.03233101964,
767,-0.03177054226,
766,-0.03206301481,
765,-0.03175711632,
764,-0.0339611955,
763,-0.03470233455,
762,-0.03272808343,
761,-0.03243005276,
760,-0.03197582066,
759,-0.03284205124,
758,-0.03255985677,
757,-0.03265946358,
756,-0.03248900175,
755,-0.03301059827,
754,-0.03154480457,
753,-0.03275544941,
752,-0.03286576271,
751,-0.03239867836,
750,-0.03318881616,
749,-0.03325380385,
748,-0.03375944123,
747,-0.03322162479,
746,-0.03469349071,
745,-0.03288045153,
744,-0.03392725065,
743,-0.03289153799,
742,-0.03380518407,
741,-0.03422454,
740,-0.03310640901,
739,-0.03357359767,
738,-0.03282596916,
737,-0.03386480734,
736,-0.03367292508,
735,-0.03362798318,
734,-0.0327491127,
733,-0.03395301104,
732,-0.03300925717,
731,-0.03298022598,
730,-0.03314914927,
729,-0.03339783847,
728,-0.0329028666,
727,-0.03292791918,
726,-0.0330311358,
725,-0.03388018161,
724,-0.03333829343,
723,-0.03304058686,
722,-0.0343130976,
721,-0.03278372437,
720,-0.03280110285,
719,-0.03373122588,
718,-0.03283048421,
717,-0.03430176154,
716,-0.03437054902,
715,-0.03312377632,
714,-0.03220114484,
713,-0.03294529021,
712,-0.0328627862,
711,-0.03251081333,
710,-0.03230088577,
709,-0.03134794161,
708,-0.03181038424,
707,-0.03028055839,
706,-0.03132906184,
705,-0.03056698851,
704,-0.02945728973,
703,-0.02828406915,
702,-0.02814939059,
701,-0.02697812393,
700,-0.02519578859,
699,-0.02268704399,
698,-0.02170078084,
697,-0.01933450252,
696,-0.01731145941,
695,-0.01333333645,
694,-0.01064217463,
693,-0.006234505214,
692,-0.00157380756,
691,0.002228588099,
690,0.008488234133,
689,0.01463929936,
688,0.0199645441,
687,0.02748213522,
686,0.03257272393,
685,0.03869334608,
684,0.04372444004,
683,0.04942461848,
682,0.05531255528,
681,0.06026017666,
680,0.06446826458,
679,0.06880307943,
678,0.0714340657,
677,0.07490759343,
676,0.07773147523,
675,0.07922741771,
674,0.08006123453,
673,0.08053657413,
672,0.08016159385,
671,0.07784170657,
670,0.07522837073,
669,0.07309129089,
668,0.06830314547,
667,0.06334853917,
666,0.05843134224,
665,0.05314589664,
664,0.04781191796,
663,0.04228549823,
662,0.03741107136,
661,0.03254730627,
660,0.02702495642,
659,0.02251952328,
658,0.01861535944,
657,0.01472345646,
656,0.01159339305,
655,0.009510943666,
654,0.007307287306,
653,0.004953046329,
652,0.004262053873,
651,0.002959456062,
650,0.002742119133,
649,0.001642148476,
648,0.001558643766,
647,0.001927208854,
646,0.002609389136,
645,0.003725182964,
644,0.005526358262,
643,0.006336656865,
642,0.007072766777,
641,0.007068188395,
640,0.008205193095,
639,0.009000477381,
638,0.008410951123,
637,0.009660807438,
636,0.008583432063,
635,0.008496100083,
634,0.008064585738,
633,0.007328742649,
632,0.006676835008,
631,0.005718784872,
630,0.005116929766,
629,0.005047445651,
628,0.003772834549,
627,0.002691871719,
626,0.003702782094,
625,0.002836013213,
624,0.002925288863,
623,0.00276655471,
622,0.002722035162,
621,0.001792466152,
620,0.002021473134,
619,0.0005574754323,
618,0.0005784964305,
617,0.000136828894,
616,-0.0001656903623,
615,-0.001506277942,
614,-0.00246777758,
613,-0.003065444296,
612,-0.003614543471,
611,-0.005161824171,
610,-0.005200397223,
609,-0.006135539152,
608,-0.005962102208,
607,-0.006684137508,
606,-0.007293598261,
605,-0.007483755238,
604,-0.008007427678,
603,-0.009540935978,
602,-0.008916771039,
601,-0.008222622797,
600,-0.0077873962,
599,-0.007351427805,
598,-0.006595625076,
597,-0.006468331441,
596,-0.006095619407,
595,-0.004749276675,
594,-0.00455054082,
593,-0.004155667964,
592,-0.003304476151,
591,-0.003647709731,
590,-0.002787547652,
589,-0.002214635024,
588,-0.003002927871,
587,-0.002612048062,
586,-0.002478587907,
585,-0.002720772522,
584,-0.002445383696,
583,-0.003322304459,
582,-0.003925928846,
581,-0.003773112549,
580,-0.003927827347,
579,-0.003680924885,
578,-0.003924389835,
577,-0.003723428119,
576,-0.003439429216,
575,-0.00399564812,
574,-0.004200124182,
573,-0.004512217361,
572,-0.003559962614,
571,-0.003852144582,
570,-0.00360196433,
569,-0.002946264809,
568,-0.001591397566,
567,-0.002819851274,
566,-0.002448163694,
565,-0.000819500885,
564,-0.000905065157,
563,0.0003795764642,
562,0.002199187409,
561,0.002536503831,
560,0.004017963074,
559,0.00495438138,
558,0.006087223534,
557,0.007107682526,
556,0.008757750504,
555,0.01035573147,
554,0.01151924953,
553,0.01232888643,
552,0.01286032144,
551,0.01489854418,
550,0.01609349251,
549,0.01760114543,
548,0.01904247887,
547,0.01987023279,
546,0.0212179739,
545,0.0222383365,
544,0.02415717207,
543,0.02529698238,
542,0.0258276388,
541,0.02667479776,
540,0.02833783627,
539,0.02976590395,
538,0.03080220893,
537,0.03231256083,
536,0.0327334702,
535,0.03452545777,
534,0.03502278775,
533,0.03550796211,
532,0.03658803925,
531,0.03768599778,
530,0.03941291198,
529,0.03995240107,
528,0.04061410576,
527,0.04090460762,
526,0.04281453788,
525,0.04208538309,
524,0.04388343915,
523,0.04573803023,
522,0.04656036198,
521,0.04690155759,
520,0.04728772491,
519,0.04913363978,
518,0.0503795892,
517,0.05142460018,
516,0.05154528841,
515,0.05224765092,
514,0.05436211824,
513,0.05528553575,
512,0.05649323761,
511,0.05750118941,
510,0.05901809409,
509,0.06036867574,
508,0.06153829768,
507,0.06242212281,
506,0.06388952583,
505,0.06507111341,
504,0.06628698856,
503,0.06839740276,
502,0.06854323298,
501,0.07118947059,
500,0.07173198462,
499,0.07205076516,
498,0.07347661257,
497,0.07473897189,
496,0.07553753257,
495,0.07686790824,
494,0.07742981613,
493,0.0775552243,
492,0.07872585952,
491,0.07933221757,
490,0.07930885255,
489,0.08017414063,
488,0.08110184222,
487,0.08136732131,
486,0.08165211231,
485,0.08249811083,
484,0.08383780718,
483,0.08323644847,
482,0.08492251486,
481,0.08503659815,
480,0.08671075106,
479,0.08622135222,
478,0.08884137869,
477,0.09091889113,
476,0.09098447859,
475,0.09278509021,
474,0.0964532271,
473,0.09816788137,
472,0.1004501954,
471,0.1023791209,
470,0.104095757,
469,0.1044606119,
468,0.1059486046,
467,0.1081236377,
466,0.108580634,
465,0.1104692072,
464,0.1119088531,
463,0.1147145554,
462,0.1140990481,
461,0.1149981618,
460,0.1154497191,
459,0.1159387901,
458,0.1166605279,
457,0.1176937297,
456,0.1181865931,
455,0.119174391,
454,0.1184851304,
453,0.1204114184,
452,0.1193272099,
451,0.1206516102,
450,0.1209612489,
449,0.1226363778,
448,0.1229234487,
447,0.1248522848,
446,0.1264715344,
445,0.12688905,
444,0.1281488687,
443,0.1295032799,
442,0.1300733685,
441,0.1306456476,
440,0.1317480057,
439,0.1321142912,
438,0.1318270713,
437,0.1320794523,
436,0.1316782832,
435,0.130496949,
434,0.1301598251,
433,0.1293948889,
432,0.1288187951,
431,0.1274334192,
430,0.1266347468,
429,0.1255605519,
428,0.1249616519,
427,0.1238374934,
426,0.1225322932,
425,0.1230944321,
424,0.1216604114,
423,0.1196987778,
422,0.1195130721,
421,0.1189886034,
420,0.1179034114,
419,0.1182368249,
418,0.119124122,
417,0.119274877,
416,0.1198424399,
415,0.1184214056,
414,0.1179350987,
413,0.1171932444,
412,0.1172185019,
411,0.1145762876,
410,0.1140983701,
409,0.1118866801,
408,0.1103149354,
407,0.1096641347,
406,0.1083139405,
405,0.1074328497,
404,0.1063660383,
403,0.1060755178,
402,0.1056227013,
401,0.1064042374,
400,0.1055018902,
399,0.106582664,
398,0.1051596776,
397,0.1040921733,
396,0.1040963233,
395,0.1030116677,
394,0.1033859551,
393,0.103407532,
392,0.1019915938,
391,0.1024269313,
390,0.1015179604,
389,0.1008699536,
388,0.101347059,
387,0.1017850637,
386,0.09994243085,
385,0.1014390588,
384,0.1012386084,
383,0.1009990498,
382,0.1019239277,
381,0.1025210321,
380,0.1024854332,
379,0.1015010849,
378,0.1020104811,
377,0.1017109156,
376,0.09804081917,
375,0.09907076508,
374,0.09962377697,
373,0.09858079255,
372,0.09747631103,
371,0.09620764107,
370,0.09705401957,
369,0.09953190386,
368,0.09953226149,
367,0.1018208638,
366,0.09796403348,
365,0.09940782934,
364,0.097567752,
363,0.09823665023,
362,0.1083200499,
361,0.1010068282,
360,0.1057910696,
359,0.09259602427,
358,0.09955019504,
357,0.1015966162,
356,0.105824329,
355,0.09899227321,
354,0.100593105,
353,0.1082251891,
352,0.08617611229,
351,0.0862563625,
350,0.08950258791,
349,0.1193429828,
348,0.1098171473,
347,0.1082795635,
346,0.1169536039,
345,0.1198355108,
344,0.12155509,
343,0.1213039309,
342,0.1298358738,
341,0.1321739107,
340,0.121860683,
339,0.1284508556,
338,0.1339434683,
337,0.1449798495,
336,0.1439307183,
335,0.1377151906,
334,0.144437775,
333,0.1421795189,
332,0.1364619434,
331,0.1371569633,
330,0.1382876635,
329,0.1317706257,
328,0.1367841661,
327,0.1469062567,
326,0.138262108,
325,0.1486802697,
324,0.154238686,
323,0.1444552094,
322,0.1532997042,
321,0.151979059,
320,0.1450420618,
319,0.1519457847,
318,0.1538337469,
317,0.1413753629,
316,0.140766874,
315,0.1419565231,
314,0.151702553,
313,0.1518459916,
312,0.1481647938,
311,0.1466610432,
310,0.1456367075,
309,0.1273027211,
308,0.1350254565,
307,0.1249655187,
306,0.1220646724,
305,0.1205928624,
304,0.1076162159,
303,0.09567718953,
302,0.09656541049,
301,0.07969814539,
300,0.06978520751,
299,0.04804366082,
298,0.03465726227,
297,0.01944370568,
296,0.01676440984,
295,-0.006204190198,
294,-0.004136642907,
293,-0.008635286242,
292,-0.02152453363,
291,-0.02920217253,
290,-0.03535244614,
289,-0.04437251389,
288,-0.04743888602,
287,-0.05107336119,
286,-0.0449575372,
285,-0.0453250818,
284,-0.04568617046,
283,-0.04583955556,
282,-0.04576859996,
281,-0.0447149165,
280,-0.04241586849,
279,-0.04180126637,
278,-0.03589421138,
277,-0.04086302593,
276,-0.03839138895,
275,-0.04018430412,
274,-0.04577866569,
273,-0.04356342182,
272,-0.04150982574,
271,-0.03947218508,
270,-0.0398549363,
269,-0.03762576357,
268,-0.03907357901,
267,-0.0400547795,
266,-0.03692398593,
265,-0.03585498035,
264,-0.03525111452,
263,-0.02996408008,
262,-0.02598713338,
261,-0.02392759733,
260,-0.02428258024,
259,-0.0205880627,
258,-0.01725807413,
257,-0.01700808294,
256,-0.01617854461,
255,-0.007655262947,
254,-0.009649712592,
253,-0.001756842947,
252,0.0001265231549,
251,0.00872006081,
250,0.01238095388,

